# time [s]     intensity
0.000000    0.021528
0.004361    0.023666
0.008721    0.025990
0.013082    0.028513
0.017443    0.031250
0.021804    0.034213
0.026164    0.037419
0.030525    0.040883
0.034886    0.044619
0.039247    0.048646
0.043607    0.052979
0.047968    0.057635
0.052329    0.062633
0.056690    0.067989
0.061050    0.073721
0.065411    0.079848
0.069772    0.086387
0.074133    0.093356
0.078493    0.100773
0.082854    0.108655
0.087215    0.117018
0.091576    0.125879
0.095936    0.135254
0.100297    0.145156
0.104658    0.155600
0.109019    0.166598
0.113379    0.178160
0.117740    0.190297
0.122101    0.203016
0.126462    0.216322
0.130822    0.230220
0.135183    0.244712
0.139544    0.259796
0.143905    0.275470
0.148265    0.291727
0.152626    0.308559
0.156987    0.325953
0.161348    0.343896
0.165708    0.362368
0.170069    0.381350
0.174430    0.400815
0.178791    0.420737
0.183151    0.441083
0.187512    0.461819
0.191873    0.482906
0.196234    0.504302
0.200594    0.525963
0.204955    0.547839
0.209316    0.569880
0.213676    0.592032
0.218037    0.614237
0.222398    0.636435
0.226759    0.658564
0.231119    0.680561
0.235480    0.702359
0.239841    0.723892
0.244202    0.745090
0.248562    0.765884
0.252923    0.786205
0.257284    0.805983
0.261645    0.825149
0.266005    0.843634
0.270366    0.861370
0.274727    0.878292
0.279088    0.894337
0.283448    0.909442
0.287809    0.923549
0.292170    0.936602
0.296531    0.948551
0.300891    0.959347
0.305252    0.968946
0.309613    0.977309
0.313974    0.984401
0.318334    0.990194
0.322695    0.994664
0.327056    0.997791
0.331417    0.999563
0.335777    0.999973
0.340138    0.999018
0.344499    0.996702
0.348860    0.993036
0.353220    0.988035
0.357581    0.981718
0.361942    0.974114
0.366303    0.965252
0.370663    0.955170
0.375024    0.943907
0.379385    0.931511
0.383746    0.918029
0.388106    0.903516
0.392467    0.888028
0.396828    0.871625
0.401189    0.854369
0.405549    0.836326
0.409910    0.817560
0.414271    0.798142
0.418632    0.778138
0.422992    0.757619
0.427353    0.736655
0.431714    0.715315
0.436074    0.693668
0.440435    0.671783
0.444796    0.649725
0.449157    0.627560
0.453517    0.605352
0.457878    0.583162
0.462239    0.561048
0.466600    0.539066
0.470960    0.517270
0.475321    0.495709
0.479682    0.474431
0.484043    0.453480
0.488403    0.432896
0.492764    0.412716
0.497125    0.392973
0.501486    0.373698
0.505846    0.354917
0.510207    0.336654
0.514568    0.318929
0.518929    0.301758
0.523289    0.285154
0.527650    0.269130
0.532011    0.253691
0.536372    0.238844
0.540732    0.224590
0.545093    0.210929
0.549454    0.197858
0.553815    0.185373
0.558175    0.173467
0.562536    0.162131
0.566897    0.151357
0.571258    0.141131
0.575618    0.131441
0.579979    0.122274
0.584340    0.113614
0.588701    0.105445
0.593061    0.097751
0.597422    0.090516
0.601783    0.083721
0.606144    0.077349
0.610504    0.071382
0.614865    0.065802
0.619226    0.060592
0.623587    0.055733
0.627947    0.051208
0.632308    0.046999
0.636669    0.043091
0.641029    0.039465
0.645390    0.036107
0.649751    0.033000
0.654112    0.030129
0.658472    0.027479
0.662833    0.025037
0.667194    0.022789
0.671555    0.020722
0.675915    0.018824
0.680276    0.017083
0.684637    0.015488
0.688998    0.014028
0.693358    0.012694
0.697719    0.011476
0.702080    0.010365
0.706441    0.009353
0.710801    0.008432
0.715162    0.007595
0.719523    0.006835
0.723884    0.006145
0.728244    0.005520
0.732605    0.004955
0.736966    0.004443
0.741327    0.003981
0.745687    0.003565
0.750048    0.003189
0.754409    0.002850
0.758770    0.002546
0.763130    0.002272
0.767491    0.002026
0.771852    0.001805
0.776213    0.001607
0.780573    0.001430
0.784934    0.001271
0.789295    0.001129
0.793656    0.001003
0.798016    0.000889
0.802377    0.000788
0.806738    0.000699
0.811099    0.000618
0.815459    0.000547
0.819820    0.000484
0.824181    0.000428
0.828542    0.000378
0.832902    0.000333
0.837263    0.000294
0.841624    0.000259
0.845984    0.000228
0.850345    0.000201
0.854706    0.000177
0.859067    0.000156
0.863427    0.000137
0.867788    0.000120
0.872149    0.000106
0.876510    0.000093
0.880870    0.000081
0.885231    0.000071
0.889592    0.000063
0.893953    0.000055
0.898313    0.000048
0.902674    0.000042
0.907035    0.000037
0.911396    0.000032
0.915756    0.000028
0.920117    0.000025
0.924478    0.000021
0.928839    0.000019
0.933199    0.000016
0.937560    0.000014
0.941921    0.000012
0.946282    0.000011
0.950642    0.000010
0.955003    0.000008
0.959364    0.000007
0.963725    0.000006
0.968085    0.000005
0.972446    0.000005
0.976807    0.000004
0.981168    0.000004
0.985528    0.000003
0.989889    0.000003
0.994250    0.000002
0.998611    0.000002
1.002971    0.000002
1.007332    0.000002
1.011693    0.000001
1.016054    0.000001
1.020414    0.000001
1.024775    0.000001
1.029136    0.000001
1.033497    0.000001
1.037857    0.000001
1.042218    0.000001
1.046579    0.000000
1.050940    0.000000
1.055300    0.000000
1.059661    0.000000
1.064022    0.000000
1.068382    0.000000
1.072743    0.000000
1.077104    0.000000
1.081465    0.000000
1.085825    0.000000
1.090186    0.000000
1.094547    0.000000
1.098908    0.000000
1.103268    0.000000
1.107629    0.000000
1.111990    0.000000
1.116351    0.000000
1.120711    0.000000
1.125072    0.000000
1.129433    0.000000
1.133794    0.000000
1.138154    0.000000
1.142515    0.000000
1.146876    0.000000
1.151237    0.000000
1.155597    0.000000
1.159958    0.000000
1.164319    0.000000
1.168680    0.000000
1.173040    0.000000
1.177401    0.000000
1.181762    0.000000
1.186123    0.000000
1.190483    0.000000
1.194844    0.000000
1.199205    0.000000
1.203566    0.000000
1.207926    0.000000
1.212287    0.000000
1.216648    0.000000
1.221009    0.000000
1.225369    0.000000
1.229730    0.000000
1.234091    0.000000
1.238452    0.000000
1.242812    0.000000
1.247173    0.000000
1.251534    0.000000
1.255895    0.000000
1.260255    0.000000
1.264616    0.000000
1.268977    0.000000
1.273337    0.000000
1.277698    0.000000
1.282059    0.000000
1.286420    0.000000
1.290780    0.000000
1.295141    0.000000
1.299502    0.000000
1.303863    0.000000
1.308223    0.000000
1.312584    0.000000
1.316945    0.000000
1.321306    0.000000
1.325666    0.000000
1.330027    0.000000
1.334388    0.000000
1.338749    0.000000
1.343109    0.000000
1.347470    0.000000
1.351831    0.000000
1.356192    0.000000
1.360552    0.000000
1.364913    0.000000
1.369274    0.000000
1.373635    0.000000
1.377995    0.000000
1.382356    0.000000
1.386717    0.000000
1.391078    0.000000
1.395438    0.000000
1.399799    0.000000
1.404160    0.000000
1.408521    0.000000
1.412881    0.000000
1.417242    0.000000
1.421603    0.000000
1.425964    0.000000
1.430324    0.000000
1.434685    0.000000
1.439046    0.000000
1.443407    0.000000
1.447767    0.000000
1.452128    0.000000
1.456489    0.000000
1.460850    0.000000
1.465210    0.000000
1.469571    0.000000
1.473932    0.000000
1.478292    0.000000
1.482653    0.000000
1.487014    0.000000
1.491375    0.000000
1.495735    0.000000
1.500096    0.000000
1.504457    0.000000
1.508818    0.000000
1.513178    0.000000
1.517539    0.000000
1.521900    0.000000
1.526261    0.000000
1.530621    0.000000
1.534982    0.000000
1.539343    0.000000
1.543704    0.000000
1.548064    0.000000
1.552425    0.000000
1.556786    0.000000
1.561147    0.000000
1.565507    0.000000
1.569868    0.000000
1.574229    0.000000
1.578590    0.000000
1.582950    0.000000
1.587311    0.000000
1.591672    0.000000
1.596033    0.000000
1.600393    0.000000
1.604754    0.000000
1.609115    0.000000
1.613476    0.000000
1.617836    0.000000
1.622197    0.000000
1.626558    0.000000
1.630919    0.000000
1.635279    0.000000
1.639640    0.000000
1.644001    0.000000
1.648362    0.000000
1.652722    0.000000
1.657083    0.000000
1.661444    0.000000
1.665805    0.000000
1.670165    0.000000
1.674526    0.000000
1.678887    0.000000
1.683248    0.000000
1.687608    0.000000
1.691969    0.000000
1.696330    0.000000
1.700690    0.000000
1.705051    0.000000
1.709412    0.000000
1.713773    0.000000
1.718133    0.000000
1.722494    0.000000
1.726855    0.000000
1.731216    0.000000
1.735576    0.000000
1.739937    0.000000
1.744298    0.000000
1.748659    0.000000
1.753019    0.000000
1.757380    0.000000
1.761741    0.000000
1.766102    0.000000
1.770462    0.000000
1.774823    0.000000
1.779184    0.000000
1.783545    0.000000
1.787905    0.000000
1.792266    0.000000
1.796627    0.000000
1.800988    0.000000
1.805348    0.000000
1.809709    0.000000
1.814070    0.000000
1.818431    0.000000
1.822791    0.000000
1.827152    0.000000
1.831513    0.000000
1.835874    0.000000
1.840234    0.000000
1.844595    0.000000
1.848956    0.000000
1.853317    0.000000
1.857677    0.000000
1.862038    0.000000
1.866399    0.000000
1.870760    0.000000
1.875120    0.000000
1.879481    0.000000
1.883842    0.000000
1.888203    0.000000
1.892563    0.000000
1.896924    0.000000
1.901285    0.000000
1.905645    0.000000
1.910006    0.000000
1.914367    0.000000
1.918728    0.000000
1.923088    0.000000
1.927449    0.000000
1.931810    0.000000
1.936171    0.000000
1.940531    0.000000
1.944892    0.000000
1.949253    0.000000
1.953614    0.000000
1.957974    0.000000
1.962335    0.000000
1.966696    0.000000
1.971057    0.000000
1.975417    0.000000
1.979778    0.000000
1.984139    0.000000
1.988500    0.000000
1.992860    0.000000
1.997221    0.000000
2.001582    0.000000
2.005943    0.000000
2.010303    0.000000
2.014664    0.000000
2.019025    0.000000
2.023386    0.000000
2.027746    0.000000
2.032107    0.000000
2.036468    0.000000
2.040829    0.000000
2.045189    0.000000
2.049550    0.000000
2.053911    0.000000
2.058272    0.000000
2.062632    0.000000
2.066993    0.000000
2.071354    0.000000
2.075715    0.000000
2.080075    0.000000
2.084436    0.000000
2.088797    0.000000
2.093158    0.000000
2.097518    0.000000
2.101879    0.000000
2.106240    0.000000
2.110600    0.000000
2.114961    0.000000
2.119322    0.000000
2.123683    0.000000
2.128043    0.000000
2.132404    0.000000
2.136765    0.000000
2.141126    0.000000
2.145486    0.000000
2.149847    0.000000
2.154208    0.000000
2.158569    0.000000
2.162929    0.000000
2.167290    0.000000
2.171651    0.000000
2.176012    0.000000
2.180372    0.000000
2.184733    0.000000
2.189094    0.000000
2.193455    0.000000
2.197815    0.000000
2.202176    0.000000
2.206537    0.000000
2.210898    0.000000
2.215258    0.000000
2.219619    0.000000
2.223980    0.000000
2.228341    0.000000
2.232701    0.000000
2.237062    0.000000
2.241423    0.000000
2.245784    0.000000
2.250144    0.000000
2.254505    0.000000
2.258866    0.000000
2.263227    0.000000
2.267587    0.000000
2.271948    0.000000
2.276309    0.000000
2.280670    0.000000
2.285030    0.000000
2.289391    0.000000
2.293752    0.000000
2.298113    0.000000
2.302473    0.000000
2.306834    0.000000
2.311195    0.000000
2.315556    0.000000
2.319916    0.000000
2.324277    0.000000
2.328638    0.000000
2.332998    0.000000
2.337359    0.000000
2.341720    0.000000
2.346081    0.000000
2.350441    0.000000
2.354802    0.000000
2.359163    0.000000
2.363524    0.000000
2.367884    0.000000
2.372245    0.000000
2.376606    0.000000
2.380967    0.000000
2.385327    0.000000
2.389688    0.000000
2.394049    0.000000
2.398410    0.000000
2.402770    0.000000
2.407131    0.000000
2.411492    0.000000
2.415853    0.000000
2.420213    0.000001
2.424574    0.000001
2.428935    0.000001
2.433296    0.000001
2.437656    0.000001
2.442017    0.000001
2.446378    0.000001
2.450739    0.000001
2.455099    0.000002
2.459460    0.000002
2.463821    0.000002
2.468182    0.000003
2.472542    0.000003
2.476903    0.000003
2.481264    0.000004
2.485625    0.000004
2.489985    0.000005
2.494346    0.000006
2.498707    0.000007
2.503068    0.000008
2.507428    0.000009
2.511789    0.000010
2.516150    0.000012
2.520511    0.000013
2.524871    0.000015
2.529232    0.000017
2.533593    0.000020
2.537953    0.000023
2.542314    0.000026
2.546675    0.000030
2.551036    0.000034
2.555396    0.000039
2.559757    0.000044
2.564118    0.000051
2.568479    0.000058
2.572839    0.000066
2.577200    0.000075
2.581561    0.000086
2.585922    0.000098
2.590282    0.000111
2.594643    0.000127
2.599004    0.000144
2.603365    0.000164
2.607725    0.000186
2.612086    0.000212
2.616447    0.000240
2.620808    0.000273
2.625168    0.000309
2.629529    0.000350
2.633890    0.000397
2.638251    0.000449
2.642611    0.000508
2.646972    0.000575
2.651333    0.000649
2.655694    0.000733
2.660054    0.000827
2.664415    0.000933
2.668776    0.001052
2.673137    0.001184
2.677497    0.001332
2.681858    0.001498
2.686219    0.001684
2.690580    0.001890
2.694940    0.002121
2.699301    0.002378
2.703662    0.002664
2.708023    0.002981
2.712383    0.003334
2.716744    0.003726
2.721105    0.004161
2.725466    0.004642
2.729826    0.005174
2.734187    0.005763
2.738548    0.006413
2.742908    0.007130
2.747269    0.007920
2.751630    0.008790
2.755991    0.009746
2.760351    0.010797
2.764712    0.011950
2.769073    0.013213
2.773434    0.014597
2.777794    0.016109
2.782155    0.017761
2.786516    0.019564
2.790877    0.021528
2.795237    0.023666
2.799598    0.025990
2.803959    0.028513
2.808320    0.031250
2.812680    0.034213
2.817041    0.037419
2.821402    0.040883
2.825763    0.044619
2.830123    0.048646
2.834484    0.052979
2.838845    0.057635
2.843206    0.062633
2.847566    0.067989
2.851927    0.073721
2.856288    0.079848
2.860649    0.086387
2.865009    0.093356
2.869370    0.100773
2.873731    0.108655
2.878092    0.117018
2.882452    0.125879
2.886813    0.135254
2.891174    0.145156
2.895535    0.155600
2.899895    0.166598
2.904256    0.178160
2.908617    0.190297
2.912978    0.203016
2.917338    0.216322
2.921699    0.230220
2.926060    0.244712
2.930421    0.259796
2.934781    0.275470
2.939142    0.291727
2.943503    0.308559
2.947864    0.325953
2.952224    0.343896
2.956585    0.362368
2.960946    0.381350
2.965306    0.400815
2.969667    0.420737
2.974028    0.441083
2.978389    0.461819
2.982749    0.482906
2.987110    0.504302
2.991471    0.525963
2.995832    0.547839
3.000192    0.569880
3.004553    0.592032
3.008914    0.614237
3.013275    0.636435
3.017635    0.658564
3.021996    0.680561
3.026357    0.702359
3.030718    0.723892
3.035078    0.745090
3.039439    0.765884
3.043800    0.786205
3.048161    0.805983
3.052521    0.825149
3.056882    0.843634
3.061243    0.861370
3.065604    0.878292
3.069964    0.894337
3.074325    0.909442
3.078686    0.923549
3.083047    0.936602
3.087407    0.948551
3.091768    0.959347
3.096129    0.968946
3.100490    0.977309
3.104850    0.984401
3.109211    0.990194
3.113572    0.994664
3.117933    0.997791
3.122293    0.999563
3.126654    0.999973
3.131015    0.999018
3.135376    0.996702
3.139736    0.993036
3.144097    0.988035
3.148458    0.981718
3.152819    0.974114
3.157179    0.965252
3.161540    0.955170
3.165901    0.943907
3.170261    0.931511
3.174622    0.918029
3.178983    0.903516
3.183344    0.888028
3.187704    0.871625
3.192065    0.854369
3.196426    0.836326
3.200787    0.817560
3.205147    0.798142
3.209508    0.778138
3.213869    0.757619
3.218230    0.736655
3.222590    0.715315
3.226951    0.693668
3.231312    0.671783
3.235673    0.649725
3.240033    0.627560
3.244394    0.605352
3.248755    0.583162
3.253116    0.561048
3.257476    0.539066
3.261837    0.517270
3.266198    0.495709
3.270559    0.474431
3.274919    0.453480
3.279280    0.432896
3.283641    0.412716
3.288002    0.392973
3.292362    0.373698
3.296723    0.354917
3.301084    0.336654
3.305445    0.318929
3.309805    0.301758
3.314166    0.285154
3.318527    0.269130
3.322888    0.253691
3.327248    0.238844
3.331609    0.224590
3.335970    0.210929
3.340331    0.197858
3.344691    0.185373
3.349052    0.173467
3.353413    0.162131
3.357774    0.151357
3.362134    0.141131
3.366495    0.131441
3.370856    0.122274
3.375216    0.113614
3.379577    0.105445
3.383938    0.097751
3.388299    0.090516
3.392659    0.083721
3.397020    0.077349
3.401381    0.071382
3.405742    0.065802
3.410102    0.060592
3.414463    0.055733
3.418824    0.051208
3.423185    0.046999
3.427545    0.043091
3.431906    0.039465
3.436267    0.036107
3.440628    0.033000
3.444988    0.030129
3.449349    0.027479
3.453710    0.025037
3.458071    0.022789
3.462431    0.020722
3.466792    0.018824
3.471153    0.017083
3.475514    0.015488
3.479874    0.014028
3.484235    0.012694
3.488596    0.011476
3.492957    0.010365
3.497317    0.009353
3.501678    0.008432
3.506039    0.007595
3.510400    0.006835
3.514760    0.006145
3.519121    0.005520
3.523482    0.004955
3.527843    0.004443
3.532203    0.003981
3.536564    0.003565
3.540925    0.003189
3.545286    0.002850
3.549646    0.002546
3.554007    0.002272
3.558368    0.002026
3.562729    0.001805
3.567089    0.001607
3.571450    0.001430
3.575811    0.001271
3.580172    0.001129
3.584532    0.001003
3.588893    0.000889
3.593254    0.000788
3.597614    0.000699
3.601975    0.000618
3.606336    0.000547
3.610697    0.000484
3.615057    0.000428
3.619418    0.000378
3.623779    0.000333
3.628140    0.000294
3.632500    0.000259
3.636861    0.000228
3.641222    0.000201
3.645583    0.000177
3.649943    0.000156
3.654304    0.000137
3.658665    0.000120
3.663026    0.000106
3.667386    0.000093
3.671747    0.000081
3.676108    0.000071
3.680469    0.000063
3.684829    0.000055
3.689190    0.000048
3.693551    0.000042
3.697912    0.000037
3.702272    0.000032
3.706633    0.000028
3.710994    0.000025
3.715355    0.000021
3.719715    0.000019
3.724076    0.000016
3.728437    0.000014
3.732798    0.000012
3.737158    0.000011
3.741519    0.000010
3.745880    0.000008
3.750241    0.000007
3.754601    0.000006
3.758962    0.000005
3.763323    0.000005
3.767684    0.000004
3.772044    0.000004
3.776405    0.000003
3.780766    0.000003
3.785127    0.000002
3.789487    0.000002
3.793848    0.000002
3.798209    0.000002
3.802569    0.000001
3.806930    0.000001
3.811291    0.000001
3.815652    0.000001
3.820012    0.000001
3.824373    0.000001
3.828734    0.000001
3.833095    0.000001
3.837455    0.000000
3.841816    0.000000
3.846177    0.000000
3.850538    0.000000
3.854898    0.000000
3.859259    0.000000
3.863620    0.000000
3.867981    0.000000
3.872341    0.000000
3.876702    0.000000
3.881063    0.000000
3.885424    0.000000
3.889784    0.000000
3.894145    0.000000
3.898506    0.000000
3.902867    0.000000
3.907227    0.000000
3.911588    0.000000
3.915949    0.000000
3.920310    0.000000
3.924670    0.000000
3.929031    0.000000
3.933392    0.000000
3.937753    0.000000
3.942113    0.000000
3.946474    0.000000
3.950835    0.000000
3.955196    0.000000
3.959556    0.000000
3.963917    0.000000
3.968278    0.000000
3.972639    0.000000
3.976999    0.000000
3.981360    0.000000
3.985721    0.000000
3.990082    0.000000
3.994442    0.000000
3.998803    0.000000
4.003164    0.000000
4.007524    0.000000
4.011885    0.000000
4.016246    0.000000
4.020607    0.000000
4.024967    0.000000
4.029328    0.000000
4.033689    0.000000
4.038050    0.000000
4.042410    0.000000
4.046771    0.000000
4.051132    0.000000
4.055493    0.000000
4.059853    0.000000
4.064214    0.000000
4.068575    0.000000
4.072936    0.000000
4.077296    0.000000
4.081657    0.000000
4.086018    0.000000
4.090379    0.000000
4.094739    0.000000
4.099100    0.000000
4.103461    0.000000
4.107822    0.000000
4.112182    0.000000
4.116543    0.000000
4.120904    0.000000
4.125265    0.000000
4.129625    0.000000
4.133986    0.000000
4.138347    0.000000
4.142708    0.000000
